# Temperatura_=_20.0
# Concentracion g/m^3_=_10000.0
# C_Vs_to_Am_M_A/Vsm_=_25649819763.59163
# pendiente_HvsI_1/m_=_3716.3
# ordenada_HvsI_A/m_=_1297.0
# frecuencia_Hz_=_310764.2437457076
# Promedio de 18 ciclos

Tiempo_(s)	Campo_(V.s)	Magnetizacion_(V.s)	Campo_(kA/m)	Magnetizacion_(A/m)
0.000000e+00	-6.605586e-09	-2.003794e-08	-5.705208e+01	-5.136605e+02
1.000000e-08	-6.602226e-09	-2.003223e-08	-5.702307e+01	-5.134404e+02
2.000000e-08	-6.596476e-09	-2.004963e-08	-5.697340e+01	-5.131035e+02
3.000000e-08	-6.588508e-09	-2.004463e-08	-5.690458e+01	-5.126678e+02
4.000000e-08	-6.578116e-09	-2.001654e-08	-5.681483e+01	-5.121583e+02
5.000000e-08	-6.565168e-09	-2.000701e-08	-5.670300e+01	-5.116046e+02
6.000000e-08	-6.549544e-09	-2.000255e-08	-5.656806e+01	-5.110382e+02
7.000000e-08	-6.531293e-09	-1.995308e-08	-5.641042e+01	-5.104885e+02
8.000000e-08	-6.510514e-09	-1.976238e-08	-5.623096e+01	-5.099802e+02
9.000000e-08	-6.487035e-09	-1.963794e-08	-5.602816e+01	-5.095298e+02
1.000000e-07	-6.460890e-09	-1.985658e-08	-5.580235e+01	-5.091440e+02
1.100000e-07	-6.432472e-09	-1.996492e-08	-5.555691e+01	-5.088181e+02
1.200000e-07	-6.402124e-09	-1.970355e-08	-5.529480e+01	-5.085369e+02
1.300000e-07	-6.369904e-09	-1.965228e-08	-5.501652e+01	-5.082753e+02
1.400000e-07	-6.335766e-09	-1.991485e-08	-5.472167e+01	-5.080008e+02
1.500000e-07	-6.299628e-09	-1.988606e-08	-5.440955e+01	-5.076762e+02
1.600000e-07	-6.261262e-09	-1.957489e-08	-5.407818e+01	-5.072633e+02
1.700000e-07	-6.220500e-09	-1.966900e-08	-5.372612e+01	-5.067254e+02
1.800000e-07	-6.177276e-09	-1.982341e-08	-5.335280e+01	-5.060310e+02
1.900000e-07	-6.131557e-09	-1.954048e-08	-5.295793e+01	-5.051553e+02
2.000000e-07	-6.083443e-09	-1.954845e-08	-5.254237e+01	-5.040819e+02
2.100000e-07	-6.032626e-09	-1.973980e-08	-5.210346e+01	-5.028030e+02
2.200000e-07	-5.979119e-09	-1.948059e-08	-5.164133e+01	-5.013190e+02
2.300000e-07	-5.923266e-09	-1.927779e-08	-5.115893e+01	-4.996371e+02
2.400000e-07	-5.865068e-09	-1.942440e-08	-5.065628e+01	-4.977695e+02
2.500000e-07	-5.804588e-09	-1.930031e-08	-5.013391e+01	-4.957313e+02
2.600000e-07	-5.741895e-09	-1.899600e-08	-4.959244e+01	-4.935384e+02
2.700000e-07	-5.677044e-09	-1.903549e-08	-4.903232e+01	-4.912059e+02
2.800000e-07	-5.609962e-09	-1.905229e-08	-4.845294e+01	-4.887462e+02
2.900000e-07	-5.540630e-09	-1.886036e-08	-4.785412e+01	-4.861688e+02
3.000000e-07	-5.469143e-09	-1.875806e-08	-4.723669e+01	-4.834795e+02
3.100000e-07	-5.395539e-09	-1.872773e-08	-4.660099e+01	-4.806812e+02
3.200000e-07	-5.319748e-09	-1.859048e-08	-4.594638e+01	-4.777737e+02
3.300000e-07	-5.241600e-09	-1.840458e-08	-4.527142e+01	-4.747555e+02
3.400000e-07	-5.161197e-09	-1.831196e-08	-4.457699e+01	-4.716236e+02
3.500000e-07	-5.078766e-09	-1.822494e-08	-4.386504e+01	-4.683748e+02
3.600000e-07	-4.994548e-09	-1.807717e-08	-4.313765e+01	-4.650060e+02
3.700000e-07	-4.908669e-09	-1.794307e-08	-4.239591e+01	-4.615138e+02
3.800000e-07	-4.821041e-09	-1.784208e-08	-4.163907e+01	-4.578950e+02
3.900000e-07	-4.731591e-09	-1.768377e-08	-4.086650e+01	-4.541456e+02
4.000000e-07	-4.640289e-09	-1.749369e-08	-4.007793e+01	-4.502604e+02
4.100000e-07	-4.547215e-09	-1.734330e-08	-3.927405e+01	-4.462331e+02
4.200000e-07	-4.452455e-09	-1.717841e-08	-3.845562e+01	-4.420551e+02
4.300000e-07	-4.355993e-09	-1.700303e-08	-3.762248e+01	-4.377166e+02
4.400000e-07	-4.257880e-09	-1.686373e-08	-3.677509e+01	-4.332061e+02
4.500000e-07	-4.158126e-09	-1.671148e-08	-3.591351e+01	-4.285117e+02
4.600000e-07	-4.056752e-09	-1.650252e-08	-3.503796e+01	-4.236217e+02
4.700000e-07	-3.953893e-09	-1.629416e-08	-3.414957e+01	-4.185257e+02
4.800000e-07	-3.849552e-09	-1.609542e-08	-3.324837e+01	-4.132155e+02
4.900000e-07	-3.743674e-09	-1.586364e-08	-3.233391e+01	-4.076858e+02
5.000000e-07	-3.636286e-09	-1.562246e-08	-3.140641e+01	-4.019340e+02
5.100000e-07	-3.527482e-09	-1.540424e-08	-3.046667e+01	-3.959606e+02
5.200000e-07	-3.417389e-09	-1.519314e-08	-2.951580e+01	-3.897677e+02
5.300000e-07	-3.306016e-09	-1.496670e-08	-2.855388e+01	-3.833584e+02
5.400000e-07	-3.193314e-09	-1.471820e-08	-2.758048e+01	-3.767348e+02
5.500000e-07	-3.079277e-09	-1.444282e-08	-2.659555e+01	-3.698965e+02
5.600000e-07	-2.963917e-09	-1.415143e-08	-2.559920e+01	-3.628396e+02
5.700000e-07	-2.847283e-09	-1.386022e-08	-2.459184e+01	-3.555552e+02
5.800000e-07	-2.729482e-09	-1.356447e-08	-2.357440e+01	-3.480296e+02
5.900000e-07	-2.610618e-09	-1.325768e-08	-2.254777e+01	-3.402444e+02
6.000000e-07	-2.490734e-09	-1.294815e-08	-2.151234e+01	-3.321777e+02
6.100000e-07	-2.369892e-09	-1.264016e-08	-2.046864e+01	-3.238060e+02
6.200000e-07	-2.248147e-09	-1.231763e-08	-1.941713e+01	-3.151065e+02
6.300000e-07	-2.125567e-09	-1.196450e-08	-1.835842e+01	-3.060590e+02
6.400000e-07	-2.002216e-09	-1.158647e-08	-1.729304e+01	-2.966486e+02
6.500000e-07	-1.878072e-09	-1.119974e-08	-1.622082e+01	-2.868666e+02
6.600000e-07	-1.753147e-09	-1.080632e-08	-1.514185e+01	-2.767109e+02
6.700000e-07	-1.627571e-09	-1.040004e-08	-1.405725e+01	-2.661861e+02
6.800000e-07	-1.501452e-09	-9.985362e-09	-1.296796e+01	-2.553008e+02
6.900000e-07	-1.374816e-09	-9.560331e-09	-1.187421e+01	-2.440653e+02
7.000000e-07	-1.247684e-09	-9.120266e-09	-1.077618e+01	-2.324875e+02
7.100000e-07	-1.120069e-09	-8.664833e-09	-9.673977e+00	-2.205694e+02
7.200000e-07	-9.920203e-10	-8.185355e-09	-8.568030e+00	-2.083029e+02
7.300000e-07	-8.636252e-10	-7.683272e-09	-7.459088e+00	-1.956670e+02
7.400000e-07	-7.349263e-10	-7.164353e-09	-6.347522e+00	-1.826259e+02
7.500000e-07	-6.059730e-10	-6.625593e-09	-5.233758e+00	-1.691294e+02
7.600000e-07	-4.768199e-10	-6.069237e-09	-4.118271e+00	-1.551150e+02
7.700000e-07	-3.474998e-10	-5.498556e-09	-3.001341e+00	-1.405119e+02
7.800000e-07	-2.180381e-10	-4.906336e-09	-1.883188e+00	-1.252477e+02
7.900000e-07	-8.848415e-11	-4.285029e-09	-7.642371e-01	-1.092554e+02
8.000000e-07	4.109749e-11	-3.637862e-09	3.549518e-01	-9.248227e+01
8.100000e-07	1.706582e-10	-2.967471e-09	1.473960e+00	-7.489790e+01
8.200000e-07	3.001654e-10	-2.265821e-09	2.592506e+00	-5.650173e+01
8.300000e-07	4.295767e-10	-1.528804e-09	3.710223e+00	-3.732869e+01
8.400000e-07	5.588472e-10	-7.628272e-10	4.826724e+00	-1.745236e+01
8.500000e-07	6.879287e-10	2.871762e-11	5.941593e+00	3.014919e+00
8.600000e-07	8.167567e-10	8.469163e-10	7.054275e+00	2.392505e+01
8.700000e-07	9.452873e-10	1.688908e-09	8.164388e+00	4.510041e+01
8.800000e-07	1.073449e-09	2.541130e-09	9.271311e+00	6.634271e+01
8.900000e-07	1.201169e-09	3.381412e-09	1.037443e+01	8.744390e+01
9.000000e-07	1.328417e-09	4.193049e-09	1.147346e+01	1.081981e+02
9.100000e-07	1.455167e-09	4.975582e-09	1.256819e+01	1.284135e+02
9.200000e-07	1.581401e-09	5.729412e-09	1.365847e+01	1.479234e+02
9.300000e-07	1.707091e-09	6.447512e-09	1.474405e+01	1.665948e+02
9.400000e-07	1.832151e-09	7.124783e-09	1.582419e+01	1.843350e+02
9.500000e-07	1.956477e-09	7.761267e-09	1.689799e+01	2.010935e+02
9.600000e-07	2.080013e-09	8.363124e-09	1.796496e+01	2.168621e+02
9.700000e-07	2.202730e-09	8.933887e-09	1.902487e+01	2.316704e+02
9.800000e-07	2.324601e-09	9.471433e-09	2.007746e+01	2.455795e+02
9.900000e-07	2.445604e-09	9.976042e-09	2.112255e+01	2.586726e+02
1.000000e-06	2.565649e-09	1.045676e-08	2.215937e+01	2.710457e+02
1.010000e-06	2.684650e-09	1.092284e-08	2.318718e+01	2.827976e+02
1.020000e-06	2.802563e-09	1.137438e-08	2.420559e+01	2.940207e+02
1.030000e-06	2.919301e-09	1.180745e-08	2.521384e+01	3.047942e+02
1.040000e-06	3.034801e-09	1.222105e-08	2.621141e+01	3.151787e+02
1.050000e-06	3.149043e-09	1.261891e-08	2.719811e+01	3.252141e+02
1.060000e-06	3.262007e-09	1.299926e-08	2.817377e+01	3.349202e+02
1.070000e-06	3.373670e-09	1.335712e-08	2.913819e+01	3.442986e+02
1.080000e-06	3.484084e-09	1.369386e-08	3.009184e+01	3.533380e+02
1.090000e-06	3.593278e-09	1.401414e-08	3.103495e+01	3.620193e+02
1.100000e-06	3.701133e-09	1.432504e-08	3.196648e+01	3.703213e+02
1.110000e-06	3.807555e-09	1.462870e-08	3.288564e+01	3.782266e+02
1.120000e-06	3.912506e-09	1.491852e-08	3.379209e+01	3.857253e+02
1.130000e-06	4.015943e-09	1.519322e-08	3.468547e+01	3.928186e+02
1.140000e-06	4.117877e-09	1.545750e-08	3.556587e+01	3.995191e+02
1.150000e-06	4.218252e-09	1.571259e-08	3.643281e+01	4.058505e+02
1.160000e-06	4.316946e-09	1.595393e-08	3.728522e+01	4.118452e+02
1.170000e-06	4.413918e-09	1.617820e-08	3.812276e+01	4.175409e+02
1.180000e-06	4.509184e-09	1.639042e-08	3.894557e+01	4.229767e+02
1.190000e-06	4.602827e-09	1.659713e-08	3.975436e+01	4.281890e+02
1.200000e-06	4.694810e-09	1.679898e-08	4.054881e+01	4.332083e+02
1.210000e-06	4.784987e-09	1.699090e-08	4.132767e+01	4.380567e+02
1.220000e-06	4.873283e-09	1.717017e-08	4.209028e+01	4.427467e+02
1.230000e-06	4.959745e-09	1.733981e-08	4.283705e+01	4.472812e+02
1.240000e-06	5.044430e-09	1.750245e-08	4.356847e+01	4.516554e+02
1.250000e-06	5.127244e-09	1.765818e-08	4.428373e+01	4.558587e+02
1.260000e-06	5.208043e-09	1.780480e-08	4.498158e+01	4.598782e+02
1.270000e-06	5.286782e-09	1.794401e-08	4.566165e+01	4.637013e+02
1.280000e-06	5.363420e-09	1.808099e-08	4.632356e+01	4.673192e+02
1.290000e-06	5.437849e-09	1.821778e-08	4.696640e+01	4.707283e+02
1.300000e-06	5.510084e-09	1.835305e-08	4.759030e+01	4.739320e+02
1.310000e-06	5.580259e-09	1.848075e-08	4.819640e+01	4.769402e+02
1.320000e-06	5.648360e-09	1.859741e-08	4.878458e+01	4.797688e+02
1.330000e-06	5.714240e-09	1.870582e-08	4.935358e+01	4.824374e+02
1.340000e-06	5.777946e-09	1.880944e-08	4.990380e+01	4.849671e+02
1.350000e-06	5.839622e-09	1.890676e-08	5.043650e+01	4.873777e+02
1.360000e-06	5.899170e-09	1.899798e-08	5.095081e+01	4.896855e+02
1.370000e-06	5.956435e-09	1.908927e-08	5.144540e+01	4.919013e+02
1.380000e-06	6.011415e-09	1.918069e-08	5.192027e+01	4.940296e+02
1.390000e-06	6.063935e-09	1.926592e-08	5.237387e+01	4.960685e+02
1.400000e-06	6.113771e-09	1.933828e-08	5.280430e+01	4.980104e+02
1.410000e-06	6.161087e-09	1.939882e-08	5.321297e+01	4.998443e+02
1.420000e-06	6.206173e-09	1.945604e-08	5.360238e+01	5.015573e+02
1.430000e-06	6.248930e-09	1.951246e-08	5.397167e+01	5.031378e+02
1.440000e-06	6.289226e-09	1.956531e-08	5.431970e+01	5.045775e+02
1.450000e-06	6.327249e-09	1.961279e-08	5.464810e+01	5.058730e+02
1.460000e-06	6.363007e-09	1.965553e-08	5.495695e+01	5.070271e+02
1.470000e-06	6.396297e-09	1.969567e-08	5.524447e+01	5.080485e+02
1.480000e-06	6.427180e-09	1.973259e-08	5.551120e+01	5.089513e+02
1.490000e-06	6.455803e-09	1.976309e-08	5.575842e+01	5.097531e+02
1.500000e-06	6.481928e-09	1.978570e-08	5.598405e+01	5.104725e+02
1.510000e-06	6.505450e-09	1.980390e-08	5.618721e+01	5.111272e+02
1.520000e-06	6.526649e-09	1.982443e-08	5.637031e+01	5.117308e+02
1.530000e-06	6.545507e-09	1.984737e-08	5.653318e+01	5.122915e+02
1.540000e-06	6.561783e-09	1.986522e-08	5.667376e+01	5.128109e+02
1.550000e-06	6.575422e-09	1.987360e-08	5.679157e+01	5.132835e+02
1.560000e-06	6.586308e-09	1.987607e-08	5.688558e+01	5.136978e+02
1.570000e-06	6.594482e-09	1.987893e-08	5.695618e+01	5.140380e+02
1.580000e-06	6.600238e-09	1.988038e-08	5.700590e+01	5.142865e+02
1.590000e-06	6.603557e-09	1.987556e-08	5.703456e+01	5.144269e+02
1.600000e-06	6.604360e-09	1.986916e-08	5.704150e+01	5.144463e+02
1.610000e-06	6.602858e-09	1.987991e-08	5.702853e+01	5.143386e+02
1.620000e-06	6.599225e-09	1.988565e-08	5.699715e+01	5.141051e+02
1.630000e-06	6.593272e-09	1.985876e-08	5.694573e+01	5.137565e+02
1.640000e-06	6.584975e-09	1.984045e-08	5.687408e+01	5.133115e+02
1.650000e-06	6.574453e-09	1.983706e-08	5.678320e+01	5.127956e+02
1.660000e-06	6.561460e-09	1.980127e-08	5.667098e+01	5.122390e+02
1.670000e-06	6.546117e-09	1.975603e-08	5.653846e+01	5.116728e+02
1.680000e-06	6.528847e-09	1.987586e-08	5.638930e+01	5.111264e+02
1.690000e-06	6.509493e-09	2.005214e-08	5.622214e+01	5.106235e+02
1.700000e-06	6.487293e-09	1.987319e-08	5.603040e+01	5.101798e+02
1.710000e-06	6.462017e-09	1.964152e-08	5.581209e+01	5.098006e+02
1.720000e-06	6.434089e-09	1.981012e-08	5.557088e+01	5.094803e+02
1.730000e-06	6.403587e-09	1.987920e-08	5.530743e+01	5.092025e+02
1.740000e-06	6.370718e-09	1.960814e-08	5.502355e+01	5.089410e+02
1.750000e-06	6.336023e-09	1.966638e-08	5.472389e+01	5.086628e+02
1.760000e-06	6.299431e-09	1.991243e-08	5.440784e+01	5.083304e+02
1.770000e-06	6.260487e-09	1.974209e-08	5.407149e+01	5.079056e+02
1.780000e-06	6.219292e-09	1.977534e-08	5.371569e+01	5.073522e+02
1.790000e-06	6.175998e-09	2.002549e-08	5.334177e+01	5.066393e+02
1.800000e-06	6.130399e-09	1.982886e-08	5.294793e+01	5.057429e+02
1.810000e-06	6.082360e-09	1.969254e-08	5.253301e+01	5.046476e+02
1.820000e-06	6.031815e-09	1.986180e-08	5.209646e+01	5.033464e+02
1.830000e-06	5.978704e-09	1.982109e-08	5.163775e+01	5.018406e+02
1.840000e-06	5.923058e-09	1.955310e-08	5.115714e+01	5.001380e+02
1.850000e-06	5.865153e-09	1.960566e-08	5.065701e+01	4.982512e+02
1.860000e-06	5.805049e-09	1.968659e-08	5.013790e+01	4.961955e+02
1.870000e-06	5.742573e-09	1.942964e-08	4.959830e+01	4.939869e+02
1.880000e-06	5.677855e-09	1.929224e-08	4.903933e+01	4.916400e+02
1.890000e-06	5.610953e-09	1.924387e-08	4.846150e+01	4.891672e+02
1.900000e-06	5.541838e-09	1.912179e-08	4.786456e+01	4.865775e+02
1.910000e-06	5.470432e-09	1.896407e-08	4.724783e+01	4.838763e+02
1.920000e-06	5.396826e-09	1.890911e-08	4.661210e+01	4.810661e+02
1.930000e-06	5.321038e-09	1.887183e-08	4.595753e+01	4.781468e+02
1.940000e-06	5.242938e-09	1.871648e-08	4.528298e+01	4.751164e+02
1.950000e-06	5.162798e-09	1.856888e-08	4.459081e+01	4.719720e+02
1.960000e-06	5.080783e-09	1.844585e-08	4.388246e+01	4.687104e+02
1.970000e-06	4.996905e-09	1.829186e-08	4.315801e+01	4.653283e+02
1.980000e-06	4.911036e-09	1.811262e-08	4.241637e+01	4.618226e+02
1.990000e-06	4.823198e-09	1.800931e-08	4.165771e+01	4.581899e+02
2.000000e-06	4.733624e-09	1.788832e-08	4.088406e+01	4.544260e+02
2.010000e-06	4.642353e-09	1.772719e-08	4.009576e+01	4.505258e+02
2.020000e-06	4.549365e-09	1.758214e-08	3.929263e+01	4.464826e+02
2.030000e-06	4.454563e-09	1.741128e-08	3.847383e+01	4.422878e+02
2.040000e-06	4.358069e-09	1.719709e-08	3.764042e+01	4.379313e+02
2.050000e-06	4.259985e-09	1.699353e-08	3.679327e+01	4.334015e+02
2.060000e-06	4.160308e-09	1.682444e-08	3.593236e+01	4.286866e+02
2.070000e-06	4.059049e-09	1.663848e-08	3.505779e+01	4.237748e+02
2.080000e-06	3.956174e-09	1.645407e-08	3.416927e+01	4.186561e+02
2.090000e-06	3.851749e-09	1.625958e-08	3.326735e+01	4.133224e+02
2.100000e-06	3.745906e-09	1.604124e-08	3.235320e+01	4.077688e+02
2.110000e-06	3.638713e-09	1.580162e-08	3.142737e+01	4.019931e+02
2.120000e-06	3.530129e-09	1.555075e-08	3.048954e+01	3.959959e+02
2.130000e-06	3.420193e-09	1.529092e-08	2.954003e+01	3.897795e+02
2.140000e-06	3.308849e-09	1.503348e-08	2.857836e+01	3.833471e+02
2.150000e-06	3.196133e-09	1.479007e-08	2.760484e+01	3.767004e+02
2.160000e-06	3.082097e-09	1.454390e-08	2.661991e+01	3.698388e+02
2.170000e-06	2.966729e-09	1.428060e-08	2.562349e+01	3.627578e+02
2.180000e-06	2.850112e-09	1.398765e-08	2.461628e+01	3.554482e+02
2.190000e-06	2.732311e-09	1.367055e-08	2.359884e+01	3.478956e+02
2.200000e-06	2.613342e-09	1.334178e-08	2.257132e+01	3.400812e+02
2.210000e-06	2.493276e-09	1.300799e-08	2.153431e+01	3.319828e+02
2.220000e-06	2.372299e-09	1.267238e-08	2.048944e+01	3.235769e+02
2.230000e-06	2.250489e-09	1.233756e-08	1.943737e+01	3.148409e+02
2.240000e-06	2.127818e-09	1.199508e-08	1.837787e+01	3.057550e+02
2.250000e-06	2.004326e-09	1.163524e-08	1.731128e+01	2.963049e+02
2.260000e-06	1.880080e-09	1.125489e-08	1.623817e+01	2.864827e+02
2.270000e-06	1.755114e-09	1.085305e-08	1.515885e+01	2.762870e+02
2.280000e-06	1.629511e-09	1.043150e-08	1.407402e+01	2.657230e+02
2.290000e-06	1.503349e-09	9.996179e-09	1.298436e+01	2.547995e+02
2.300000e-06	1.376629e-09	9.556684e-09	1.188990e+01	2.435268e+02
2.310000e-06	1.249351e-09	9.116336e-09	1.079061e+01	2.319125e+02
2.320000e-06	1.121571e-09	8.663173e-09	9.686971e+00	2.199576e+02
2.330000e-06	9.933644e-10	8.185620e-09	8.579659e+00	2.076526e+02
2.340000e-06	8.647917e-10	7.684226e-09	7.469180e+00	1.949751e+02
2.350000e-06	7.359130e-10	7.163447e-09	6.356058e+00	1.818877e+02
2.360000e-06	6.067942e-10	6.621675e-09	5.240863e+00	1.683388e+02
2.370000e-06	4.774776e-10	6.054357e-09	4.123960e+00	1.542646e+02
2.380000e-06	3.479953e-10	5.471448e-09	3.005626e+00	1.395940e+02
2.390000e-06	2.183958e-10	4.877536e-09	1.886280e+00	1.242546e+02
2.400000e-06	8.872721e-11	4.260271e-09	7.663370e-01	1.081807e+02
2.410000e-06	-4.097642e-11	3.610512e-09	-3.539084e-01	9.132152e+01
2.420000e-06	-1.706905e-10	2.927244e-09	-1.474244e+00	7.364947e+01
2.430000e-06	-3.003637e-10	2.213298e-09	-2.594226e+00	5.516758e+01
2.440000e-06	-4.299314e-10	1.472545e-09	-3.713298e+00	3.591484e+01
2.450000e-06	-5.593576e-10	7.060188e-10	-4.831148e+00	1.596900e+01
2.460000e-06	-6.886049e-10	-8.702302e-11	-5.947453e+00	-4.553538e+00
2.470000e-06	-8.176283e-10	-9.065895e-10	-7.061825e+00	-2.550118e+01
2.480000e-06	-9.463804e-10	-1.748304e-09	-8.173854e+00	-4.669360e+01
2.490000e-06	-1.074783e-09	-2.597062e-09	-9.282867e+00	-6.793095e+01
2.500000e-06	-1.202757e-09	-3.440154e-09	-1.038817e+01	-8.900479e+01
2.510000e-06	-1.330248e-09	-4.266797e-09	-1.148931e+01	-1.097102e+02
2.520000e-06	-1.457207e-09	-5.059470e-09	-1.258584e+01	-1.298576e+02
2.530000e-06	-1.583610e-09	-5.810141e-09	-1.367758e+01	-1.492835e+02
2.540000e-06	-1.709421e-09	-6.524074e-09	-1.476420e+01	-1.678590e+02
2.550000e-06	-1.834559e-09	-7.201013e-09	-1.584500e+01	-1.854958e+02
2.560000e-06	-1.958985e-09	-7.837918e-09	-1.691966e+01	-2.021480e+02
2.570000e-06	-2.082646e-09	-8.442323e-09	-1.798772e+01	-2.178119e+02
2.580000e-06	-2.205458e-09	-9.017386e-09	-1.904844e+01	-2.325206e+02
2.590000e-06	-2.327394e-09	-9.557454e-09	-2.010159e+01	-2.463381e+02
2.600000e-06	-2.448451e-09	-1.006594e-08	-2.114716e+01	-2.593495e+02
2.610000e-06	-2.568549e-09	-1.055172e-08	-2.218444e+01	-2.716515e+02
2.620000e-06	-2.687579e-09	-1.101882e-08	-2.321249e+01	-2.833426e+02
2.630000e-06	-2.805478e-09	-1.146633e-08	-2.423078e+01	-2.945143e+02
2.640000e-06	-2.922228e-09	-1.189522e-08	-2.523913e+01	-3.052437e+02
2.650000e-06	-3.037757e-09	-1.230792e-08	-2.623695e+01	-3.155894e+02
2.660000e-06	-3.151896e-09	-1.270292e-08	-2.722276e+01	-3.255891e+02
2.670000e-06	-3.264623e-09	-1.307737e-08	-2.819637e+01	-3.352603e+02
2.680000e-06	-3.376004e-09	-1.343291e-08	-2.915836e+01	-3.446033e+02
2.690000e-06	-3.486045e-09	-1.377522e-08	-3.010877e+01	-3.536055e+02
2.700000e-06	-3.594785e-09	-1.410590e-08	-3.104796e+01	-3.622473e+02
2.710000e-06	-3.702261e-09	-1.442140e-08	-3.197623e+01	-3.705077e+02
2.720000e-06	-3.808470e-09	-1.472300e-08	-3.289355e+01	-3.783698e+02
2.730000e-06	-3.913339e-09	-1.501637e-08	-3.379930e+01	-3.858250e+02
2.740000e-06	-4.016701e-09	-1.529882e-08	-3.469203e+01	-3.928755e+02
2.750000e-06	-4.118452e-09	-1.556413e-08	-3.557084e+01	-3.995353e+02
2.760000e-06	-4.218598e-09	-1.581188e-08	-3.643579e+01	-4.058291e+02
2.770000e-06	-4.317158e-09	-1.604518e-08	-3.728705e+01	-4.117901e+02
2.780000e-06	-4.414183e-09	-1.626865e-08	-3.812506e+01	-4.174562e+02
2.790000e-06	-4.509601e-09	-1.648222e-08	-3.894918e+01	-4.228665e+02
2.800000e-06	-4.603279e-09	-1.668461e-08	-3.975827e+01	-4.280569e+02
2.810000e-06	-4.695199e-09	-1.688121e-08	-4.055218e+01	-4.330572e+02
2.820000e-06	-4.785372e-09	-1.707420e-08	-4.133100e+01	-4.378884e+02
2.830000e-06	-4.873751e-09	-1.726129e-08	-4.209432e+01	-4.425618e+02
2.840000e-06	-4.960202e-09	-1.743986e-08	-4.284100e+01	-4.470797e+02
2.850000e-06	-5.044669e-09	-1.760881e-08	-4.357054e+01	-4.514363e+02
2.860000e-06	-5.127252e-09	-1.776814e-08	-4.428380e+01	-4.556207e+02
2.870000e-06	-5.208010e-09	-1.791828e-08	-4.498131e+01	-4.596198e+02
2.880000e-06	-5.286756e-09	-1.806229e-08	-4.566143e+01	-4.634214e+02
2.890000e-06	-5.363279e-09	-1.820041e-08	-4.632235e+01	-4.670171e+02
2.900000e-06	-5.437614e-09	-1.833221e-08	-4.696438e+01	-4.704041e+02
2.910000e-06	-5.509901e-09	-1.845957e-08	-4.758871e+01	-4.735864e+02
2.920000e-06	-5.580098e-09	-1.858019e-08	-4.819501e+01	-4.765747e+02
2.930000e-06	-5.648105e-09	-1.869120e-08	-4.878238e+01	-4.793853e+02
