# Temperatura_=_20.0
# Concentracion g/m^3_=_10000.0
# C_Vs_to_Am_M_A/Vsm_=_25649819763.59163
# pendiente_HvsI_1/m_=_3716.3
# ordenada_HvsI_A/m_=_1297.0
# frecuencia_Hz_=_310672.48615193996
# Promedio de 20 ciclos

Tiempo_(s)	Campo_(V.s)	Magnetizacion_(V.s)	Campo_(kA/m)	Magnetizacion_(A/m)
0.000000e+00	-6.524780e-09	-2.759728e-08	-5.709055e+01	-7.047001e+02
1.000000e-08	-6.522585e-09	-2.757478e-08	-5.707134e+01	-7.046132e+02
2.000000e-08	-6.517933e-09	-2.758489e-08	-5.703064e+01	-7.044422e+02
3.000000e-08	-6.511073e-09	-2.757548e-08	-5.697061e+01	-7.041956e+02
4.000000e-08	-6.501925e-09	-2.754811e-08	-5.689057e+01	-7.038793e+02
5.000000e-08	-6.490320e-09	-2.754991e-08	-5.678903e+01	-7.034956e+02
6.000000e-08	-6.476124e-09	-2.755115e-08	-5.666481e+01	-7.030436e+02
7.000000e-08	-6.459271e-09	-2.751574e-08	-5.651735e+01	-7.025197e+02
8.000000e-08	-6.439943e-09	-2.732494e-08	-5.634824e+01	-7.019181e+02
9.000000e-08	-6.418066e-09	-2.715948e-08	-5.615681e+01	-7.012322e+02
1.000000e-07	-6.393463e-09	-2.737051e-08	-5.594154e+01	-7.004554e+02
1.100000e-07	-6.366384e-09	-2.747891e-08	-5.570460e+01	-6.995819e+02
1.200000e-07	-6.337258e-09	-2.719097e-08	-5.544976e+01	-6.986078e+02
1.300000e-07	-6.306286e-09	-2.714774e-08	-5.517876e+01	-6.975310e+02
1.400000e-07	-6.273453e-09	-2.742677e-08	-5.489147e+01	-6.963509e+02
1.500000e-07	-6.238705e-09	-2.736744e-08	-5.458744e+01	-6.950687e+02
1.600000e-07	-6.201931e-09	-2.695304e-08	-5.426568e+01	-6.936859e+02
1.700000e-07	-6.162892e-09	-2.699719e-08	-5.392409e+01	-6.922036e+02
1.800000e-07	-6.121450e-09	-2.709780e-08	-5.356147e+01	-6.906219e+02
1.900000e-07	-6.077530e-09	-2.665690e-08	-5.317719e+01	-6.889390e+02
2.000000e-07	-6.031197e-09	-2.661350e-08	-5.277178e+01	-6.871507e+02
2.100000e-07	-5.982410e-09	-2.682162e-08	-5.234491e+01	-6.852507e+02
2.200000e-07	-5.930890e-09	-2.657339e-08	-5.189411e+01	-6.832307e+02
2.300000e-07	-5.876862e-09	-2.633898e-08	-5.142138e+01	-6.810813e+02
2.400000e-07	-5.820578e-09	-2.643238e-08	-5.092890e+01	-6.787930e+02
2.500000e-07	-5.761996e-09	-2.632583e-08	-5.041632e+01	-6.763574e+02
2.600000e-07	-5.701149e-09	-2.599177e-08	-4.988392e+01	-6.737679e+02
2.700000e-07	-5.638167e-09	-2.596051e-08	-4.933284e+01	-6.710211e+02
2.800000e-07	-5.573078e-09	-2.595111e-08	-4.876332e+01	-6.681170e+02
2.900000e-07	-5.505744e-09	-2.578215e-08	-4.817416e+01	-6.650586e+02
3.000000e-07	-5.436210e-09	-2.566595e-08	-4.756576e+01	-6.618523e+02
3.100000e-07	-5.364598e-09	-2.560095e-08	-4.693917e+01	-6.585061e+02
3.200000e-07	-5.290931e-09	-2.548972e-08	-4.629459e+01	-6.550289e+02
3.300000e-07	-5.215054e-09	-2.526679e-08	-4.563069e+01	-6.514289e+02
3.400000e-07	-5.136846e-09	-2.509553e-08	-4.494638e+01	-6.477119e+02
3.500000e-07	-5.056418e-09	-2.498806e-08	-4.424264e+01	-6.438809e+02
3.600000e-07	-4.974008e-09	-2.483756e-08	-4.352158e+01	-6.399344e+02
3.700000e-07	-4.889906e-09	-2.466146e-08	-4.278570e+01	-6.358669e+02
3.800000e-07	-4.804164e-09	-2.453828e-08	-4.203547e+01	-6.316685e+02
3.900000e-07	-4.716710e-09	-2.439498e-08	-4.127027e+01	-6.273263e+02
4.000000e-07	-4.627490e-09	-2.417463e-08	-4.048961e+01	-6.228253e+02
4.100000e-07	-4.536466e-09	-2.398060e-08	-3.969317e+01	-6.181501e+02
4.200000e-07	-4.443705e-09	-2.378206e-08	-3.888153e+01	-6.132862e+02
4.300000e-07	-4.349290e-09	-2.356299e-08	-3.805542e+01	-6.082215e+02
4.400000e-07	-4.253255e-09	-2.337953e-08	-3.721512e+01	-6.029475e+02
4.500000e-07	-4.155611e-09	-2.321527e-08	-3.636076e+01	-5.974592e+02
4.600000e-07	-4.056332e-09	-2.299845e-08	-3.549209e+01	-5.917558e+02
4.700000e-07	-3.955449e-09	-2.275977e-08	-3.460938e+01	-5.858394e+02
4.800000e-07	-3.853114e-09	-2.253948e-08	-3.371396e+01	-5.797141e+02
4.900000e-07	-3.749346e-09	-2.229096e-08	-3.280601e+01	-5.733843e+02
5.000000e-07	-3.644073e-09	-2.201062e-08	-3.188490e+01	-5.668532e+02
5.100000e-07	-3.537344e-09	-2.173219e-08	-3.095104e+01	-5.601214e+02
5.200000e-07	-3.429251e-09	-2.147926e-08	-3.000525e+01	-5.531855e+02
5.300000e-07	-3.319860e-09	-2.122924e-08	-2.904810e+01	-5.460374e+02
5.400000e-07	-3.209240e-09	-2.095765e-08	-2.808020e+01	-5.386648e+02
5.500000e-07	-3.097405e-09	-2.065958e-08	-2.710165e+01	-5.310511e+02
5.600000e-07	-2.984283e-09	-2.033776e-08	-2.611186e+01	-5.231773e+02
5.700000e-07	-2.869855e-09	-2.000449e-08	-2.511064e+01	-5.150230e+02
5.800000e-07	-2.754191e-09	-1.966406e-08	-2.409861e+01	-5.065687e+02
5.900000e-07	-2.637370e-09	-1.931789e-08	-2.307644e+01	-4.977973e+02
6.000000e-07	-2.519488e-09	-1.896505e-08	-2.204500e+01	-4.886955e+02
6.100000e-07	-2.400669e-09	-1.861598e-08	-2.100536e+01	-4.792545e+02
6.200000e-07	-2.280959e-09	-1.826358e-08	-1.995792e+01	-4.694704e+02
6.300000e-07	-2.160341e-09	-1.788327e-08	-1.890254e+01	-4.593435e+02
6.400000e-07	-2.038879e-09	-1.747139e-08	-1.783976e+01	-4.488766e+02
6.500000e-07	-1.916662e-09	-1.704008e-08	-1.677039e+01	-4.380739e+02
6.600000e-07	-1.793719e-09	-1.660077e-08	-1.569466e+01	-4.269382e+02
6.700000e-07	-1.670071e-09	-1.615165e-08	-1.461277e+01	-4.154690e+02
6.800000e-07	-1.545780e-09	-1.569176e-08	-1.352525e+01	-4.036607e+02
6.900000e-07	-1.420906e-09	-1.522304e-08	-1.243262e+01	-3.915012e+02
7.000000e-07	-1.295500e-09	-1.474264e-08	-1.133534e+01	-3.789716e+02
7.100000e-07	-1.169636e-09	-1.424122e-08	-1.023405e+01	-3.660464e+02
7.200000e-07	-1.043394e-09	-1.371893e-08	-9.129463e+00	-3.526945e+02
7.300000e-07	-9.168136e-10	-1.317902e-08	-8.021907e+00	-3.388819e+02
7.400000e-07	-7.899148e-10	-1.261520e-08	-6.911568e+00	-3.245733e+02
7.500000e-07	-6.627447e-10	-1.203341e-08	-5.798853e+00	-3.097353e+02
7.600000e-07	-5.353379e-10	-1.144098e-08	-4.684069e+00	-2.943383e+02
7.700000e-07	-4.077394e-10	-1.083138e-08	-3.567607e+00	-2.783588e+02
7.800000e-07	-2.799956e-10	-1.019536e-08	-2.449874e+00	-2.617807e+02
7.900000e-07	-1.521414e-10	-9.532208e-09	-1.331175e+00	-2.445947e+02
8.000000e-07	-2.422424e-11	-8.839137e-09	-2.119241e-01	-2.267983e+02
8.100000e-07	1.037101e-10	-8.120444e-09	9.074770e-01	-2.083941e+02
8.200000e-07	2.316146e-10	-7.383061e-09	2.026617e+00	-1.893869e+02
8.300000e-07	3.594446e-10	-6.620424e-09	3.145105e+00	-1.697823e+02
8.400000e-07	4.871471e-10	-5.832641e-09	4.262476e+00	-1.495836e+02
8.500000e-07	6.146741e-10	-5.024337e-09	5.378313e+00	-1.287906e+02
8.600000e-07	7.419747e-10	-4.193268e-09	6.492168e+00	-1.073990e+02
8.700000e-07	8.689877e-10	-3.332019e-09	7.603507e+00	-8.540099e+01
8.800000e-07	9.956785e-10	-2.440021e-09	8.712028e+00	-6.278715e+01
8.900000e-07	1.122021e-09	-1.522347e-09	9.817503e+00	-3.955010e+01
9.000000e-07	1.247983e-09	-5.879541e-10	1.091965e+01	-1.568876e+01
9.100000e-07	1.373512e-09	3.579883e-10	1.201800e+01	8.786501e+00
9.200000e-07	1.498529e-09	1.324229e-09	1.311188e+01	3.384871e+01
9.300000e-07	1.622951e-09	2.313315e-09	1.420054e+01	5.944963e+01
9.400000e-07	1.746706e-09	3.318264e-09	1.528338e+01	8.551621e+01
9.500000e-07	1.869770e-09	4.338550e-09	1.636016e+01	1.119488e+02
9.600000e-07	1.992112e-09	5.376727e-09	1.743063e+01	1.386212e+02
9.700000e-07	2.113699e-09	6.428088e-09	1.849449e+01	1.653836e+02
9.800000e-07	2.234468e-09	7.481693e-09	1.955119e+01	1.920666e+02
9.900000e-07	2.354339e-09	8.523382e-09	2.060004e+01	2.184887e+02
1.000000e-06	2.473250e-09	9.542208e-09	2.164049e+01	2.444639e+02
1.010000e-06	2.591163e-09	1.053094e-08	2.267221e+01	2.698111e+02
1.020000e-06	2.708009e-09	1.148762e-08	2.369459e+01	2.943630e+02
1.030000e-06	2.823703e-09	1.241228e-08	2.470688e+01	3.179745e+02
1.040000e-06	2.938219e-09	1.329084e-08	2.570887e+01	3.405297e+02
1.050000e-06	3.051535e-09	1.411323e-08	2.670036e+01	3.619464e+02
1.060000e-06	3.163617e-09	1.488939e-08	2.768106e+01	3.821789e+02
1.070000e-06	3.274478e-09	1.562362e-08	2.865108e+01	4.012173e+02
1.080000e-06	3.384183e-09	1.630991e-08	2.961097e+01	4.190850e+02
1.090000e-06	3.492687e-09	1.695149e-08	3.056036e+01	4.358335e+02
1.100000e-06	3.599858e-09	1.755783e-08	3.149808e+01	4.515358e+02
1.110000e-06	3.705642e-09	1.813603e-08	3.242367e+01	4.662787e+02
1.120000e-06	3.809983e-09	1.868796e-08	3.333663e+01	4.801550e+02
1.130000e-06	3.912850e-09	1.920722e-08	3.423670e+01	4.932560e+02
1.140000e-06	4.014267e-09	1.969264e-08	3.512408e+01	5.056655e+02
1.150000e-06	4.114142e-09	2.015189e-08	3.599797e+01	5.174547e+02
1.160000e-06	4.212378e-09	2.059220e-08	3.685752e+01	5.286803e+02
1.170000e-06	4.308934e-09	2.101179e-08	3.770235e+01	5.393831e+02
1.180000e-06	4.403822e-09	2.140515e-08	3.853261e+01	5.495896e+02
1.190000e-06	4.497143e-09	2.177409e-08	3.934915e+01	5.593142e+02
1.200000e-06	4.588845e-09	2.212427e-08	4.015152e+01	5.685635e+02
1.210000e-06	4.678761e-09	2.245969e-08	4.093827e+01	5.773395e+02
1.220000e-06	4.766830e-09	2.278007e-08	4.170885e+01	5.856442e+02
1.230000e-06	4.853116e-09	2.308236e-08	4.246384e+01	5.934831e+02
1.240000e-06	4.937670e-09	2.336613e-08	4.320367e+01	6.008669e+02
1.250000e-06	5.020399e-09	2.363759e-08	4.392754e+01	6.078134e+02
1.260000e-06	5.101162e-09	2.389884e-08	4.463419e+01	6.143475e+02
1.270000e-06	5.179929e-09	2.414231e-08	4.532339e+01	6.204994e+02
1.280000e-06	5.256655e-09	2.436528e-08	4.599472e+01	6.263033e+02
1.290000e-06	5.331203e-09	2.457549e-08	4.664701e+01	6.317944e+02
1.300000e-06	5.403575e-09	2.477776e-08	4.728024e+01	6.370063e+02
1.310000e-06	5.473911e-09	2.497062e-08	4.789567e+01	6.419686e+02
1.320000e-06	5.542213e-09	2.515560e-08	4.849330e+01	6.467049e+02
1.330000e-06	5.608337e-09	2.533160e-08	4.907187e+01	6.512319e+02
1.340000e-06	5.672285e-09	2.549495e-08	4.963140e+01	6.555591e+02
1.350000e-06	5.734197e-09	2.564987e-08	5.017312e+01	6.596893e+02
1.360000e-06	5.794052e-09	2.579992e-08	5.069684e+01	6.636206e+02
1.370000e-06	5.851681e-09	2.594164e-08	5.120108e+01	6.673475e+02
1.380000e-06	5.907055e-09	2.607393e-08	5.168559e+01	6.708641e+02
1.390000e-06	5.960091e-09	2.620139e-08	5.214964e+01	6.741654e+02
1.400000e-06	6.010545e-09	2.632564e-08	5.259110e+01	6.772490e+02
1.410000e-06	6.058457e-09	2.644425e-08	5.301033e+01	6.801167e+02
1.420000e-06	6.104122e-09	2.655575e-08	5.340989e+01	6.827747e+02
1.430000e-06	6.147561e-09	2.665750e-08	5.378997e+01	6.852329e+02
1.440000e-06	6.188566e-09	2.674747e-08	5.414876e+01	6.875046e+02
1.450000e-06	6.227215e-09	2.682706e-08	5.448692e+01	6.896048e+02
1.460000e-06	6.263677e-09	2.689821e-08	5.480596e+01	6.915486e+02
1.470000e-06	6.297758e-09	2.696355e-08	5.510416e+01	6.933497e+02
1.480000e-06	6.329377e-09	2.702542e-08	5.538082e+01	6.950190e+02
1.490000e-06	6.358769e-09	2.708475e-08	5.563799e+01	6.965638e+02
1.500000e-06	6.385814e-09	2.713841e-08	5.587464e+01	6.979874e+02
1.510000e-06	6.410289e-09	2.718360e-08	5.608879e+01	6.992896e+02
1.520000e-06	6.432366e-09	2.722175e-08	5.628195e+01	7.004671e+02
1.530000e-06	6.452198e-09	2.725620e-08	5.645548e+01	7.015149e+02
1.540000e-06	6.469564e-09	2.728508e-08	5.660743e+01	7.024278e+02
1.550000e-06	6.484326e-09	2.730520e-08	5.673659e+01	7.032014e+02
1.560000e-06	6.496433e-09	2.731990e-08	5.684252e+01	7.038339e+02
1.570000e-06	6.505798e-09	2.733146e-08	5.692446e+01	7.043263e+02
1.580000e-06	6.512629e-09	2.734207e-08	5.698423e+01	7.046830e+02
1.590000e-06	6.517131e-09	2.734972e-08	5.702362e+01	7.049117e+02
1.600000e-06	6.519174e-09	2.735007e-08	5.704150e+01	7.050224e+02
1.610000e-06	6.518781e-09	2.736832e-08	5.703806e+01	7.050268e+02
1.620000e-06	6.516259e-09	2.738155e-08	5.701599e+01	7.049365e+02
1.630000e-06	6.511537e-09	2.735873e-08	5.697467e+01	7.047625e+02
1.640000e-06	6.504465e-09	2.734384e-08	5.691279e+01	7.045132e+02
1.650000e-06	6.495197e-09	2.734219e-08	5.683170e+01	7.041943e+02
1.660000e-06	6.483652e-09	2.730303e-08	5.673068e+01	7.038081e+02
1.670000e-06	6.469650e-09	2.724431e-08	5.660817e+01	7.033535e+02
1.680000e-06	6.453514e-09	2.732710e-08	5.646698e+01	7.028269e+02
1.690000e-06	6.435536e-09	2.753495e-08	5.630968e+01	7.022223e+02
1.700000e-06	6.415219e-09	2.738201e-08	5.613190e+01	7.015332e+02
1.710000e-06	6.391859e-09	2.711605e-08	5.592751e+01	7.007529e+02
1.720000e-06	6.365635e-09	2.729862e-08	5.569805e+01	6.998758e+02
1.730000e-06	6.336882e-09	2.736159e-08	5.544647e+01	6.988980e+02
1.740000e-06	6.305595e-09	2.697188e-08	5.517271e+01	6.978173e+02
1.750000e-06	6.272151e-09	2.691491e-08	5.488008e+01	6.966335e+02
1.760000e-06	6.236985e-09	2.718224e-08	5.457239e+01	6.953476e+02
1.770000e-06	6.199797e-09	2.694042e-08	5.424700e+01	6.939610e+02
1.780000e-06	6.160250e-09	2.686930e-08	5.390097e+01	6.924750e+02
1.790000e-06	6.118561e-09	2.713699e-08	5.353620e+01	6.908895e+02
1.800000e-06	6.074756e-09	2.693381e-08	5.315291e+01	6.892027e+02
1.810000e-06	6.028648e-09	2.678317e-08	5.274947e+01	6.874103e+02
1.820000e-06	5.980107e-09	2.685724e-08	5.232475e+01	6.855058e+02
1.830000e-06	5.929122e-09	2.681516e-08	5.187864e+01	6.834810e+02
1.840000e-06	5.875597e-09	2.660637e-08	5.141031e+01	6.813265e+02
1.850000e-06	5.819579e-09	2.655356e-08	5.092016e+01	6.790328e+02
1.860000e-06	5.761396e-09	2.661660e-08	5.041107e+01	6.765914e+02
1.870000e-06	5.700984e-09	2.644947e-08	4.988248e+01	6.739960e+02
1.880000e-06	5.638248e-09	2.631713e-08	4.933355e+01	6.712433e+02
1.890000e-06	5.573324e-09	2.615090e-08	4.876547e+01	6.683332e+02
1.900000e-06	5.506293e-09	2.605013e-08	4.817896e+01	6.652692e+02
1.910000e-06	5.437100e-09	2.589594e-08	4.757354e+01	6.620575e+02
1.920000e-06	5.365598e-09	2.570338e-08	4.694791e+01	6.587063e+02
1.930000e-06	5.291978e-09	2.567842e-08	4.630375e+01	6.552244e+02
1.940000e-06	5.216193e-09	2.558439e-08	4.564065e+01	6.516199e+02
1.950000e-06	5.138155e-09	2.540648e-08	4.495783e+01	6.478987e+02
1.960000e-06	5.058118e-09	2.523801e-08	4.425752e+01	6.440634e+02
1.970000e-06	4.976234e-09	2.511270e-08	4.354105e+01	6.401125e+02
1.980000e-06	4.892543e-09	2.487843e-08	4.280877e+01	6.360403e+02
1.990000e-06	4.806867e-09	2.469504e-08	4.205912e+01	6.318367e+02
2.000000e-06	4.719268e-09	2.457010e-08	4.129264e+01	6.274888e+02
2.010000e-06	4.629976e-09	2.439603e-08	4.051136e+01	6.229815e+02
2.020000e-06	4.539072e-09	2.421957e-08	3.971597e+01	6.182995e+02
2.030000e-06	4.446473e-09	2.404671e-08	3.890574e+01	6.134282e+02
2.040000e-06	4.352085e-09	2.385112e-08	3.807987e+01	6.083558e+02
2.050000e-06	4.256021e-09	2.359765e-08	3.723932e+01	6.030737e+02
2.060000e-06	4.158406e-09	2.337226e-08	3.638521e+01	5.975774e+02
2.070000e-06	4.059324e-09	2.314626e-08	3.551825e+01	5.918659e+02
2.080000e-06	3.958681e-09	2.291760e-08	3.463765e+01	5.859416e+02
2.090000e-06	3.856423e-09	2.267936e-08	3.374291e+01	5.798086e+02
2.100000e-06	3.752590e-09	2.245027e-08	3.283439e+01	5.734712e+02
2.110000e-06	3.647353e-09	2.221107e-08	3.191359e+01	5.669326e+02
2.120000e-06	3.540822e-09	2.193643e-08	3.098146e+01	5.601933e+02
2.130000e-06	3.432974e-09	2.164884e-08	3.003782e+01	5.532496e+02
2.140000e-06	3.323842e-09	2.135550e-08	2.908293e+01	5.460933e+02
2.150000e-06	3.213387e-09	2.105812e-08	2.811648e+01	5.387120e+02
2.160000e-06	3.101628e-09	2.075955e-08	2.713860e+01	5.310888e+02
2.170000e-06	2.988595e-09	2.046757e-08	2.614959e+01	5.232048e+02
2.180000e-06	2.874309e-09	2.015615e-08	2.514961e+01	5.150396e+02
2.190000e-06	2.758780e-09	1.982044e-08	2.413875e+01	5.065736e+02
2.200000e-06	2.642049e-09	1.947145e-08	2.311738e+01	4.977901e+02
2.210000e-06	2.524196e-09	1.910773e-08	2.208619e+01	4.886756e+02
2.220000e-06	2.405278e-09	1.872652e-08	2.104568e+01	4.792218e+02
2.230000e-06	2.285381e-09	1.833801e-08	1.999661e+01	4.694249e+02
2.240000e-06	2.164607e-09	1.794494e-08	1.893985e+01	4.592851e+02
2.250000e-06	2.043054e-09	1.754606e-08	1.787629e+01	4.488056e+02
2.260000e-06	1.920788e-09	1.713593e-08	1.680648e+01	4.379904e+02
2.270000e-06	1.797822e-09	1.670740e-08	1.573056e+01	4.268422e+02
2.280000e-06	1.674155e-09	1.625419e-08	1.464850e+01	4.153604e+02
2.290000e-06	1.549831e-09	1.578188e-08	1.356068e+01	4.035392e+02
2.300000e-06	1.424931e-09	1.529858e-08	1.246783e+01	3.913662e+02
2.310000e-06	1.299527e-09	1.480271e-08	1.137057e+01	3.788222e+02
2.320000e-06	1.173661e-09	1.429000e-08	1.026927e+01	3.658815e+02
2.330000e-06	1.047358e-09	1.376418e-08	9.164147e+00	3.525130e+02
2.340000e-06	9.206643e-10	1.322895e-08	8.055599e+00	3.386823e+02
2.350000e-06	7.936188e-10	1.267589e-08	6.943976e+00	3.243544e+02
2.360000e-06	6.662638e-10	1.209641e-08	5.829645e+00	3.094958e+02
2.370000e-06	5.386342e-10	1.148461e-08	4.712910e+00	2.940773e+02
2.380000e-06	4.107725e-10	1.084940e-08	3.594145e+00	2.780757e+02
2.390000e-06	2.827352e-10	1.020013e-08	2.473843e+00	2.614748e+02
2.400000e-06	1.545923e-10	9.532572e-09	1.352617e+00	2.442659e+02
2.410000e-06	2.639667e-11	8.841857e-09	2.309289e-01	2.264467e+02
2.420000e-06	-1.018251e-10	8.128862e-09	-8.909874e-01	2.080197e+02
2.430000e-06	-2.300191e-10	7.396537e-09	-2.012660e+00	1.889901e+02
2.440000e-06	-3.581290e-10	6.637735e-09	-3.133597e+00	1.693631e+02
2.450000e-06	-4.861161e-10	5.841907e-09	-4.253460e+00	1.491421e+02
2.460000e-06	-6.139228e-10	5.011731e-09	-5.371744e+00	1.283268e+02
2.470000e-06	-7.415004e-10	4.159801e-09	-6.488023e+00	1.069125e+02
2.480000e-06	-8.687927e-10	3.292497e-09	-7.601806e+00	8.489148e+01
2.490000e-06	-9.957266e-10	2.410202e-09	-8.712451e+00	6.225429e+01
2.500000e-06	-1.122255e-09	1.506188e-09	-9.819549e+00	3.899369e+01
2.510000e-06	-1.248357e-09	5.750650e-10	-1.092291e+01	1.510898e+01
2.520000e-06	-1.374006e-09	-3.766957e-10	-1.202231e+01	-9.388961e+00
2.530000e-06	-1.499146e-09	-1.346573e-09	-1.311727e+01	-3.447242e+01
2.540000e-06	-1.623718e-09	-2.340190e-09	-1.420725e+01	-6.009227e+01
2.550000e-06	-1.747639e-09	-3.354960e-09	-1.529153e+01	-8.617449e+01
2.560000e-06	-1.870842e-09	-4.379656e-09	-1.636954e+01	-1.126184e+02
2.570000e-06	-1.993288e-09	-5.411849e-09	-1.744091e+01	-1.392969e+02
2.580000e-06	-2.114970e-09	-6.450987e-09	-1.850561e+01	-1.660592e+02
2.590000e-06	-2.235861e-09	-7.493275e-09	-1.956338e+01	-1.927355e+02
2.600000e-06	-2.355857e-09	-8.533832e-09	-2.061332e+01	-2.191439e+02
2.610000e-06	-2.474858e-09	-9.560513e-09	-2.165456e+01	-2.450985e+02
2.620000e-06	-2.592819e-09	-1.056033e-08	-2.268670e+01	-2.704185e+02
2.630000e-06	-2.709723e-09	-1.152489e-08	-2.370957e+01	-2.949374e+02
2.640000e-06	-2.825492e-09	-1.244934e-08	-2.472253e+01	-3.185109e+02
2.650000e-06	-2.939983e-09	-1.332588e-08	-2.572431e+01	-3.410245e+02
2.660000e-06	-3.053122e-09	-1.414772e-08	-2.671424e+01	-3.623972e+02
2.670000e-06	-3.164978e-09	-1.492005e-08	-2.769296e+01	-3.825848e+02
2.680000e-06	-3.275565e-09	-1.565438e-08	-2.866057e+01	-4.015786e+02
2.690000e-06	-3.384864e-09	-1.635360e-08	-2.961692e+01	-4.194033e+02
2.700000e-06	-3.492947e-09	-1.701101e-08	-3.056262e+01	-4.361111e+02
2.710000e-06	-3.599850e-09	-1.762682e-08	-3.149800e+01	-4.517759e+02
2.720000e-06	-3.705536e-09	-1.820914e-08	-3.242274e+01	-4.664847e+02
2.730000e-06	-3.809882e-09	-1.875986e-08	-3.333575e+01	-4.803304e+02
2.740000e-06	-3.912716e-09	-1.927586e-08	-3.423552e+01	-4.934042e+02
2.750000e-06	-4.013991e-09	-1.975636e-08	-3.512166e+01	-5.057892e+02
2.760000e-06	-4.113695e-09	-2.020986e-08	-3.599405e+01	-5.175565e+02
2.770000e-06	-4.211867e-09	-2.064722e-08	-3.685304e+01	-5.287619e+02
2.780000e-06	-4.308571e-09	-2.106791e-08	-3.769918e+01	-5.394457e+02
2.790000e-06	-4.403692e-09	-2.146932e-08	-3.853146e+01	-5.496339e+02
2.800000e-06	-4.497130e-09	-2.185176e-08	-3.934903e+01	-5.593407e+02
2.810000e-06	-4.588840e-09	-2.221397e-08	-4.015147e+01	-5.685722e+02
2.820000e-06	-4.678827e-09	-2.255563e-08	-4.093884e+01	-5.773304e+02
2.830000e-06	-4.767073e-09	-2.287849e-08	-4.171098e+01	-5.856176e+02
2.840000e-06	-4.853443e-09	-2.318223e-08	-4.246670e+01	-5.934391e+02
2.850000e-06	-4.937890e-09	-2.346629e-08	-4.320559e+01	-6.008062e+02
2.860000e-06	-5.020500e-09	-2.373456e-08	-4.392842e+01	-6.077368e+02
2.870000e-06	-5.101326e-09	-2.399116e-08	-4.463562e+01	-6.142560e+02
2.880000e-06	-5.180185e-09	-2.423712e-08	-4.532563e+01	-6.203943e+02
2.890000e-06	-5.256860e-09	-2.446892e-08	-4.599651e+01	-6.261859e+02
2.900000e-06	-5.331371e-09	-2.468512e-08	-4.664847e+01	-6.316659e+02
2.910000e-06	-5.403849e-09	-2.489168e-08	-4.728264e+01	-6.368680e+02
2.920000e-06	-5.474274e-09	-2.508993e-08	-4.789884e+01	-6.418214e+02
2.930000e-06	-5.542554e-09	-2.527804e-08	-4.849628e+01	-6.465497e+02
